# total density of states output by FHI-aims, for a spin polarized system
# The energy reference for this output is the average chemical potential, mu =       -2.7424235 eV
#   Energy (eV)     DOS(spin up)    DOS(spin down)
    -7.25500000      0.00000000      0.00000000
    -7.25300000      0.00000000      0.00000000
    -7.25100000      0.00000000      0.00000000
    -7.24900000      0.00000000      0.00000000
    -7.24700000      0.00000000      0.00000000
    -7.24500000      0.00000000      0.00000000
    -7.24300000      0.00000000      0.00000000
    -7.24100000      0.00000000      0.00000000
    -7.23900000      0.00000000      0.00000000
    -7.23700000      0.00000000      0.00000000
    -7.23500000      0.00000000      0.00000000
    -7.23300000      0.00000000      0.00000000
    -7.23100000      0.00000000      0.00000000
    -7.22900000      0.00000000      0.00000000
    -7.22700000      0.00000000      0.00000000
    -7.22500000      0.00000000      0.00000000
    -7.22300000      0.00000000      0.00000000
    -7.22100000      0.30820000      0.30990000
    -7.21900000      0.72430000      0.72600000
    -7.21700000      1.14000000      1.14200000
    -7.21500000      1.55600000      1.55800000
    -7.21300000      1.97200000      1.97400000
    -7.21100000      2.38900000      2.39000000
    -7.20900000      2.80500000      2.80600000
    -7.20700000      3.22100000      3.22200000
    -7.20500000      3.63700000      3.63900000
    -7.20300000      4.05300000      4.05500000
    -7.20100000      4.46900000      4.47100000
    -7.19900000      4.88500000      4.88700000
    -7.19700000      5.19400000      5.19600000
    -7.19500000      5.59000000      5.59200000
    -7.19300000      5.98600000      5.98800000
    -7.19100000      6.38200000      6.38400000
    -7.18900000      6.77800000      6.78000000
    -7.18700000      7.17500000      7.17600000
    -7.18500000      7.57100000      7.57200000
    -7.18300000      7.96700000      7.96800000
    -7.18100000      8.36300000      8.36400000
    -7.17900000      8.75900000      8.76000000
    -7.17700000      9.15500000      9.15600000
    -7.17500000      9.55100000      9.55200000
    -7.17300000     14.68000000     14.69000000
    -7.17100000     16.21000000     16.22000000
    -7.16900000     17.75000000     17.75000000
    -7.16700000     19.28000000     19.28000000
    -7.16500000     20.81000000     20.82000000
    -7.16300000     22.34000000     22.35000000
    -7.16100000     37.36000000     37.37000000
    -7.15900000     38.76000000     38.76000000
    -7.15700000     40.15000000     40.16000000
    -7.15500000     49.28000000     49.27000000
    -7.15300000     45.45000000     45.43000000
    -7.15100000     48.72000000     48.75000000
    -7.14900000     10.20000000     10.20000000
    -7.14700000      0.00000000      0.00000000
    -7.14500000      0.00000000      0.00000000
    -7.14300000      0.00000000      0.00000000
    -7.14100000      0.00000000      0.00000000
    -7.13900000      0.00000000      0.00000000
    -7.13700000      0.00000000      0.00000000
    -7.13500000      0.00000000      0.00000000
    -7.13300000      0.00000000      0.00000000
    -7.13100000      0.00000000      0.00000000
    -7.12900000      0.00000000      0.00000000
    -7.12700000      0.00000000      0.00000000
    -7.12500000      0.00000000      0.00000000
    -7.12300000      0.00000000      0.00000000
    -7.12100000      0.00000000      0.00000000
    -7.11900000      0.00000000      0.00000000
    -7.11700000      0.00000000      0.00000000
    -7.11500000      0.00000000      0.00000000
    -7.11300000      0.00000000      0.00000000
    -7.11100000      0.00000000      0.00000000
    -7.10900000      0.00000000      0.00000000
    -7.10700000      0.00000000      0.00000000
    -7.10500000      0.00000000      0.00000000
    -7.10300000      0.00000000      0.00000000
    -7.10100000      0.00000000      0.00000000
    -7.09900000      0.00000000      0.00000000
    -7.09700000      0.00000000      0.00000000
    -7.09500000      0.00000000      0.00000000
    -7.09300000      0.00000000      0.00000000
    -7.09100000      0.00000000      0.00000000
    -7.08900000      0.00000000      0.00000000
    -7.08700000      0.00000000      0.00000000
    -7.08500000      0.00000000      0.00000000
    -7.08300000      0.00000000      0.00000000
    -7.08100000      0.00000000      0.00000000
    -7.07900000      0.00000000      0.00000000
    -7.07700000      0.00000000      0.00000000
    -7.07500000      0.00000000      0.00000000
    -7.07300000      0.00000000      0.00000000
    -7.07100000      0.00000000      0.00000000
    -7.06900000      0.00000000      0.00000000
    -7.06700000      0.00000000      0.00000000
    -7.06500000      0.00000000      0.00000000
    -7.06300000      0.00000000      0.00000000
    -7.06100000      0.00000000      0.00000000
    -7.05900000      0.00000000      0.00000000
    -7.05700000      0.00000000      0.00000000
    -7.05500000      0.00000000      0.00000000
    -7.05300000      0.00000000      0.00000000
    -7.05100000      0.00000000      0.00000000
    -7.04900000      0.00000000      0.00000000
    -7.04700000      0.00000000      0.00000000
    -7.04500000      0.00000000      0.00000000
    -7.04300000      0.00000000      0.00000000
    -7.04100000      0.00000000      0.00000000
    -7.03900000      0.00000000      0.00000000
    -7.03700000      0.00000000      0.00000000
    -7.03500000      0.00000000      0.00000000
    -7.03300000      0.00000000      0.00000000
    -7.03100000      0.00000000      0.00000000
    -7.02900000      0.00000000      0.00000000
    -7.02700000      0.00000000      0.00000000
    -7.02500000      0.00000000      0.00000000
    -7.02300000      0.00000000      0.00000000
    -7.02100000      0.00000000      0.00000000
    -7.01900000      0.00000000      0.00000000
    -7.01700000      0.00000000      0.00000000
    -7.01500000      0.00000000      0.00000000
    -7.01300000      0.00000000      0.00000000
    -7.01100000      0.00000000      0.00000000
    -7.00900000      0.00000000      0.00000000
    -7.00700000      0.00000000      0.00000000
    -7.00500000      0.00000000      0.00000000
    -7.00300000      0.00000000      0.00000000
    -7.00100000      0.00000000      0.00000000
    -6.99900000      0.00000000      0.00000000
    -6.99700000      0.00000000      0.00000000
    -6.99500000      0.00000000      0.00000000
    -6.99300000      0.00000000      0.00000000
    -6.99100000      0.00000000      0.00000000
    -6.98900000      0.00000000      0.00000000
    -6.98700000      0.00000000      0.00000000
    -6.98500000      0.00000000      0.00000000
    -6.98300000      0.00000000      0.00000000
    -6.98100000      0.00000000      0.00000000
    -6.97900000      0.00000000      0.00000000
    -6.97700000      0.00000000      0.00000000
    -6.97500000      0.00000000      0.00000000
    -6.97300000      0.00000000      0.00000000
    -6.97100000      0.00000000      0.00000000
    -6.96900000      0.00000000      0.00000000
    -6.96700000      0.00000000      0.00000000
    -6.96500000      0.00000000      0.00000000
    -6.96300000      0.00000000      0.00000000
    -6.96100000      0.00000000      0.00000000
    -6.95900000      0.00000000      0.00000000
    -6.95700000      0.00000000      0.00000000
    -6.95500000      0.00000000      0.00000000
    -6.95300000      0.00000000      0.00000000
    -6.95100000      0.00000000      0.00000000
    -6.94900000      0.00000000      0.00000000
    -6.94700000      0.00000000      0.00000000
    -6.94500000      0.00000000      0.00000000
    -6.94300000      0.00000000      0.00000000
    -6.94100000      0.00000000      0.00000000
    -6.93900000      0.00000000      0.00000000
    -6.93700000      0.00000000      0.00000000
    -6.93500000      0.00000000      0.00000000
    -6.93300000      0.00000000      0.00000000
    -6.93100000      0.00000000      0.00000000
    -6.92900000      0.00000000      0.00000000
    -6.92700000      0.00000000      0.00000000
    -6.92500000      0.00000000      0.00000000
    -6.92300000      0.00000000      0.00000000
    -6.92100000      0.00000000      0.00000000
    -6.91900000      0.00000000      0.00000000
    -6.91700000      0.00000000      0.00000000
    -6.91500000      0.00000000      0.00000000
    -6.91300000      0.00000000      0.00000000
    -6.91100000      0.00000000      0.00000000
    -6.90900000      0.00000000      0.00000000
    -6.90700000      0.00000000      0.00000000
    -6.90500000      0.00000000      0.00000000
    -6.90300000      0.00000000      0.00000000
    -6.90100000      0.00000000      0.00000000
    -6.89900000      0.00000000      0.00000000
    -6.89700000      0.00000000      0.00000000
    -6.89500000      0.00000000      0.00000000
    -6.89300000      0.00000000      0.00000000
    -6.89100000      0.00000000      0.00000000
    -6.88900000      0.00000000      0.00000000
    -6.88700000      0.00000000      0.00000000
    -6.88500000      0.00000000      0.00000000
    -6.88300000      0.00000000      0.00000000
    -6.88100000      0.00000000      0.00000000
    -6.87900000      0.00000000      0.00000000
    -6.87700000      0.00000000      0.00000000
    -6.87500000      0.00000000      0.00000000
    -6.87300000      0.00000000      0.00000000
    -6.87100000      0.00000000      0.00000000
    -6.86900000      0.00000000      0.00000000
    -6.86700000      0.00000000      0.00000000
    -6.86500000      0.00000000      0.00000000
    -6.86300000      0.00000000      0.00000000
    -6.86100000      0.00000000      0.00000000
    -6.85900000      0.00000000      0.00000000
    -6.85700000      0.00000000      0.00000000
    -6.85500000      0.00000000      0.00000000
    -6.85300000      0.00000000      0.00000000
    -6.85100000      0.00000000      0.00000000
    -6.84900000      0.00000000      0.00000000
    -6.84700000      0.00000000      0.00000000
    -6.84500000      0.00000000      0.00000000
    -6.84300000      0.00000000      0.00000000
    -6.84100000      0.00000000      0.00000000
    -6.83900000      0.00000000      0.00000000
    -6.83700000      0.00000000      0.00000000
    -6.83500000      0.00000000      0.00000000
    -6.83300000      0.00000000      0.00000000
    -6.83100000      0.00000000      0.00000000
    -6.82900000      0.00000000      0.00000000
    -6.82700000      0.00000000      0.00000000
    -6.82500000      0.00000000      0.00000000
    -6.82300000      0.00000000      0.00000000
    -6.82100000      0.00000000      0.00000000
    -6.81900000      0.00000000      0.00000000
    -6.81700000      0.00000000      0.00000000
    -6.81500000      0.00000000      0.00000000
    -6.81300000      0.00000000      0.00000000
    -6.81100000      0.00000000      0.00000000
    -6.80900000      0.00000000      0.00000000
    -6.80700000      0.00000000      0.00000000
    -6.80500000      0.00000000      0.00000000
    -6.80300000      0.00000000      0.00000000
    -6.80100000      0.00000000      0.00000000
    -6.79900000      0.00000000      0.00000000
    -6.79700000      0.00000000      0.00000000
    -6.79500000      0.00000000      0.00000000
    -6.79300000      0.00000000      0.00000000
    -6.79100000      0.00000000      0.00000000
    -6.78900000      0.00000000      0.00000000
    -6.78700000      0.00000000      0.00000000
    -6.78500000      0.00000000      0.00000000
    -6.78300000      0.00000000      0.00000000
    -6.78100000      0.00000000      0.00000000
    -6.77900000      0.00000000      0.00000000
    -6.77700000      0.00000000      0.00000000
    -6.77500000      0.00000000      0.00000000
    -6.77300000      0.00000000      0.00000000
    -6.77100000      0.00000000      0.00000000
    -6.76900000      0.00000000      0.00000000
    -6.76700000      0.00000000      0.00000000
    -6.76500000      0.00000000      0.00000000
    -6.76300000      0.00000000      0.00000000
    -6.76100000      0.00000000      0.00000000
    -6.75900000      0.00000000      0.00000000
    -6.75700000      0.00000000      0.00000000
    -6.75500000      0.00000000      0.00000000
    -6.75300000      0.00000000      0.00000000
    -6.75100000      0.00000000      0.00000000
    -6.74900000      0.00000000      0.00000000
    -6.74700000      0.00000000      0.00000000
    -6.74500000      0.00000000      0.00000000
    -6.74300000      0.00000000      0.00000000
    -6.74100000      0.00000000      0.00000000
    -6.73900000      0.00000000      0.00000000
    -6.73700000      0.00000000      0.00000000
    -6.73500000      0.00000000      0.00000000
    -6.73300000      0.00000000      0.00000000
    -6.73100000      0.00000000      0.00000000
    -6.72900000      0.00000000      0.00000000
    -6.72700000      0.00000000      0.00000000
    -6.72500000      0.00000000      0.00000000
    -6.72300000      0.00000000      0.00000000
    -6.72100000      0.00000000      0.00000000
    -6.71900000      0.00000000      0.00000000
    -6.71700000      0.00000000      0.00000000
    -6.71500000      0.00000000      0.00000000
    -6.71300000      0.00000000      0.00000000
    -6.71100000      0.00000000      0.00000000
    -6.70900000      0.00000000      0.00000000
    -6.70700000      0.00000000      0.00000000
    -6.70500000      0.00000000      0.00000000
    -6.70300000      0.00000000      0.00000000
    -6.70100000      0.00000000      0.00000000
    -6.69900000      0.00000000      0.00000000
    -6.69700000      0.00000000      0.00000000
    -6.69500000      0.00000000      0.00000000
    -6.69300000      0.00000000      0.00000000
    -6.69100000      0.00000000      0.00000000
    -6.68900000      0.00000000      0.00000000
    -6.68700000      0.00000000      0.00000000
    -6.68500000      0.00000000      0.00000000
    -6.68300000      0.00000000      0.00000000
    -6.68100000      0.00000000      0.00000000
    -6.67900000      0.00000000      0.00000000
    -6.67700000      0.00000000      0.00000000
    -6.67500000      0.00000000      0.00000000
    -6.67300000      0.00000000      0.00000000
    -6.67100000      0.00000000      0.00000000
    -6.66900000      0.00000000      0.00000000
    -6.66700000      0.00000000      0.00000000
    -6.66500000      0.00000000      0.00000000
    -6.66300000      0.00000000      0.00000000
    -6.66100000      0.00000000      0.00000000
    -6.65900000      0.00000000      0.00000000
    -6.65700000      0.00000000      0.00000000
    -6.65500000      0.00000000      0.00000000
    -6.65300000      0.00000000      0.00000000
    -6.65100000      0.00000000      0.00000000
    -6.64900000      0.00000000      0.00000000
    -6.64700000      0.00000000      0.00000000
    -6.64500000      0.00000000      0.00000000
    -6.64300000      0.00000000      0.00000000
    -6.64100000      0.00000000      0.00000000
    -6.63900000      0.00000000      0.00000000
    -6.63700000      0.00000000      0.00000000
    -6.63500000      0.00000000      0.00000000
    -6.63300000      0.00000000      0.00000000
    -6.63100000      0.00000000      0.00000000
    -6.62900000      0.00000000      0.00000000
    -6.62700000      0.00000000      0.00000000
    -6.62500000      0.00000000      0.00000000
    -6.62300000      0.00000000      0.00000000
    -6.62100000      0.00000000      0.00000000
    -6.61900000      0.00000000      0.00000000
    -6.61700000      0.00000000      0.00000000
    -6.61500000      0.00000000      0.00000000
    -6.61300000      0.00000000      0.00000000
    -6.61100000      0.00000000      0.00000000
    -6.60900000      0.00000000      0.00000000
    -6.60700000      0.00000000      0.00000000
    -6.60500000      0.00000000      0.00000000
    -6.60300000      0.00000000      0.00000000
    -6.60100000      0.00000000      0.00000000
    -6.59900000      0.00000000      0.00000000
    -6.59700000      0.00000000      0.00000000
    -6.59500000      0.00000000      0.00000000
    -6.59300000      0.00000000      0.00000000
    -6.59100000      0.00000000      0.00000000
    -6.58900000      0.00000000      0.00000000
    -6.58700000      0.00000000      0.00000000
    -6.58500000      0.00000000      0.00000000
    -6.58300000      0.00000000      0.00000000
    -6.58100000      0.00000000      0.00000000
    -6.57900000      0.00000000      0.00000000
    -6.57700000      0.00000000      0.00000000
    -6.57500000      0.00000000      0.00000000
    -6.57300000      0.00000000      0.00000000
    -6.57100000      0.00000000      0.00000000
    -6.56900000      0.00000000      0.00000000
    -6.56700000      0.00000000      0.00000000
    -6.56500000      0.00000000      0.00000000
    -6.56300000      0.00000000      0.00000000
    -6.56100000      0.00000000      0.00000000
    -6.55900000      0.00000000      0.00000000
    -6.55700000      0.00000000      0.00000000
    -6.55500000      0.00000000      0.00000000
    -6.55300000      0.00000000      0.00000000
    -6.55100000      0.00000000      0.00000000
    -6.54900000      0.00000000      0.00000000
    -6.54700000      0.00000000      0.00000000
    -6.54500000      0.00000000      0.00000000
    -6.54300000      0.00000000      0.00000000
    -6.54100000      0.00000000      0.00000000
    -6.53900000      0.00000000      0.00000000
    -6.53700000      0.00000000      0.00000000
    -6.53500000      0.00000000      0.00000000
    -6.53300000      0.00000000      0.00000000
    -6.53100000      0.00000000      0.00000000
    -6.52900000      0.00000000      0.00000000
    -6.52700000      0.00000000      0.00000000
    -6.52500000      0.00000000      0.00000000
    -6.52300000      0.00000000      0.00000000
    -6.52100000      0.00000000      0.00000000
    -6.51900000      0.00000000      0.00000000
    -6.51700000      0.00000000      0.00000000
    -6.51500000      0.00000000      0.00000000
    -6.51300000      0.00000000      0.00000000
    -6.51100000      0.00000000      0.00000000
    -6.50900000      0.00000000      0.00000000
    -6.50700000      0.00000000      0.00000000
    -6.50500000      0.00000000      0.00000000
    -6.50300000      0.00000000      0.00000000
    -6.50100000      0.00000000      0.00000000
    -6.49900000      0.00000000      0.00000000
    -6.49700000      0.00000000      0.00000000
    -6.49500000      0.00000000      0.00000000
    -6.49300000      0.00000000      0.00000000
    -6.49100000      0.00000000      0.00000000
    -6.48900000      0.00000000      0.00000000
    -6.48700000      0.00000000      0.00000000
    -6.48500000      0.00000000      0.00000000
    -6.48300000      0.00000000      0.00000000
    -6.48100000      0.00000000      0.00000000
    -6.47900000      0.00000000      0.00000000
    -6.47700000      0.00000000      0.00000000
    -6.47500000      0.00000000      0.00000000
    -6.47300000      0.00000000      0.00000000
    -6.47100000      0.00000000      0.00000000
    -6.46900000      0.00000000      0.00000000
    -6.46700000      0.00000000      0.00000000
    -6.46500000      0.00000000      0.00000000
    -6.46300000      0.00000000      0.00000000
    -6.46100000      0.00000000      0.00000000
    -6.45900000      0.00000000      0.00000000
    -6.45700000      0.00000000      0.00000000
    -6.45500000      0.00000000      0.00000000
    -6.45300000      0.00000000      0.00000000
    -6.45100000      0.00000000      0.00000000
    -6.44900000      0.00000000      0.00000000
    -6.44700000      0.00000000      0.00000000
    -6.44500000      0.00000000      0.00000000
    -6.44300000      0.00000000      0.00000000
    -6.44100000      0.00000000      0.00000000
    -6.43900000      0.00000000      0.00000000
    -6.43700000      0.00000000      0.00000000
    -6.43500000      0.00000000      0.00000000
    -6.43300000      0.00000000      0.00000000
